HRV Method,IBI Info,,Time Domain,,,,,,,,,,,,,,Freq Domain: Welch,,,,,,,,,,,,,Freq Domain: AR,,,,,,,,,,,,,Freq Domain: LS,,,,,,,,,,,,,Poincare,,Nonlinear,,,,Time-Freq: AR,,,,,,,,,,,,,,Time-Freq: Lomb,,,,,,,,,,,,,,Time-Freq: Wavelet,,,,,,,,,,,,,
HRV Variable,ibi,outliers,max,min,mean,median,SDNN,SDANN,NNx,pNNx,RMSSD,SDNNi,meanHR,sdHR,HRVTi,TINN,aVLF,aLF,aHF,aTotal,pVLF,pLF,pHF,nLF,nHF,LFHF,peakVLF,peakLF,peakHF,aVLF,aLF,aHF,aTotal,pVLF,pLF,pHF,nLF,nHF,LFHF,peakVLF,peakLF,peakHF,aVLF,aLF,aHF,aTotal,pVLF,pLF,pHF,nLF,nHF,LFHF,peakVLF,peakLF,peakHF,SD1,SD2,sampen,alpha,alpha1,alpha2,aVLF,aLF,aHF,aTotal,pVLF,pLF,pHF,nLF,nHF,LFHF,peakVLF,peakLF,peakHF,rLFHF,aVLF,aLF,aHF,aTotal,pVLF,pLF,pHF,nLF,nHF,LFHF,peakVLF,peakLF,peakHF,rLFHF,aVLF,aLF,aHF,aTotal,pVLF,pLF,pHF,nLF,nHF,LFHF,peakVLF,peakLF,peakHF,rLFHF
Subject,(count),(count),(ms),(ms),(ms),(ms),(ms),(ms),(count),(%),(ms),(ms),(bpm),(bpm),(ms),(ms),(ms^2),(ms^2),(ms^2),(ms^2),(%),(%),(%),(%),(%),,(Hz),(Hz),(Hz),(ms^2),(ms^2),(ms^2),(ms^2),(%),(%),(%),(%),(%),,(Hz),(Hz),(Hz),(ms^2),(ms^2),(ms^2),(ms^2),(%),(%),(%),(%),(%),,(Hz),(Hz),(Hz),(ms),(ms),,,,,(ms^2),(ms^2),(ms^2),(ms^2),(%),(%),(%),(%),(%),,(Hz),(Hz),(Hz),,(ms^2),(ms^2),(ms^2),(ms^2),(%),(%),(%),(%),(%),,(Hz),(Hz),(Hz),,(ms^2),(ms^2),(ms^2),(ms^2),(%),(%),(%),(%),(%),,(Hz),(Hz),(Hz),
20161108_S1486201G_TM,1392,13,708,604,646,644,18.8,7,0,0,6.4,166.8,93,2.6,10.1,58.5,35.4,14.19,3.48,53.07,66.7,26.7,6.6,0.803,0.197,4.079,0.02,0.07,0.24,6.85,4.61,1.08,12.54,54.6,36.8,8.6,0.811,0.189,4.282,0,0.04,0.15,0.011,0.005,0.002,0.017,63.4,27.7,8.9,0.757,0.243,3.118,0.02,0.07,0.35,4.6,26.2,1.433,1.27,1.122,1.282,8.27,4.71,1.21,14.19,58.3,33.2,8.5,0.795,0.205,3.888,0,0.04,0.15,Inf,0.08,0.03,0.01,0.12,64.3,27.5,8.2,0.77,0.23,3.339,0.02,0.04,0.38,Inf,60.72,32.8,7.19,100.71,60.3,32.6,7.1,0.82,0.18,4.564,0.02,0.04,0.15,Inf
20161108_S1486201G_SC,1118,7,720,584,643.8,644,27.6,9,0,0,7.6,186.8,93.4,4,9.5,80.8,31.65,24.76,3.9,60.31,52.5,41.1,6.5,0.864,0.136,6.351,0.02,0.06,0.17,6.07,5.85,1.03,12.95,46.9,45.2,7.9,0.851,0.149,5.7,0.03,0.04,0.15,0.01,0.008,0.002,0.019,51,40.7,8.3,0.83,0.17,4.89,0.02,0.07,0.17,5.4,38.7,1.46,1.231,1.173,1.185,6.07,5.85,1.03,12.95,46.9,45.2,7.9,0.851,0.149,5.7,0.03,0.04,0.15,Inf,0.07,0.08,0.01,0.16,44.5,48.9,6.6,0.881,0.119,7.373,0.02,0.07,0.17,Inf,48.52,59.4,10.21,118.13,41.1,50.3,8.6,0.853,0.147,5.819,0.02,0.05,0.15,Inf
20161108_S1486201G_IR,1790,12,736,580,620,604,35.9,9.3,1,0.1,7.3,146,97.1,5.2,3.5,24.4,20.93,13.51,3.72,38.16,54.8,35.4,9.7,0.784,0.216,3.633,0.03,0.06,0.2,3.03,2.29,1.1,6.42,47.2,35.6,17.2,0.675,0.325,2.077,0,0.04,0.4,0.01,0.006,0.002,0.018,58.4,32.2,9.4,0.774,0.226,3.417,0.03,0.06,0.38,5.2,50.5,1.417,1.281,0.983,1.345,4.86,3.23,1.27,9.35,52,34.5,13.5,0.718,0.282,2.549,0,0.04,0.4,Inf,0.05,0.03,0.01,0.1,56,32.9,11,0.749,0.251,2.986,0.04,0.06,0.3,Inf,44.06,30.46,9.36,83.87,52.5,36.3,11.2,0.765,0.235,3.255,0.03,0.06,0.4,Inf
20161111_S1279578E_trim_SC,1468,18,708,568,634.7,640,23.5,9,0,0,5.9,160.2,94.7,3.5,8.3,87.5,23.66,18.61,4.51,46.78,50.6,39.8,9.6,0.805,0.195,4.125,0.01,0.05,0.17,5.7,7.07,1.64,14.4,39.6,49.1,11.4,0.812,0.188,4.314,0.04,0.04,0.15,0.006,0.004,0.001,0.011,54.6,37.1,8.3,0.816,0.184,4.444,0.02,0.08,0.16,4.2,33,1.462,1.263,1.237,1.281,5.7,7.07,1.64,14.4,39.5,49.1,11.4,0.812,0.188,4.314,0.04,0.04,0.15,Inf,0.08,0.07,0.02,0.16,48.3,42,9.7,0.812,0.188,4.325,0.02,0.05,0.17,Inf,33.61,51.6,12.53,97.73,34.4,52.8,12.8,0.805,0.195,4.118,0.02,0.05,0.15,Inf
20161111_S1279578E_trim_AC,1669,635,744,188,559.4,568,71.1,57.2,100,9.7,82.3,178.5,110.5,26.5,4.6,139,2277.03,2997.21,1819.95,7094.19,32.1,42.2,25.7,0.622,0.378,1.647,0.03,0.06,0.15,342.29,702.79,898.59,1943.67,17.6,36.2,46.2,0.439,0.561,0.782,0,0.04,0.15,0.007,0.017,0.043,0.067,10.4,25.6,63.9,0.286,0.714,0.401,0.01,0.07,0.35,58.2,82,0.51,0.655,0.744,0.61,951.2,1359.47,852.76,3163.43,30.1,43,27,0.615,0.385,1.594,0.04,0.04,0.15,0.33333,1.68,3.76,9.36,14.8,11.3,25.4,63.3,0.286,0.714,0.401,0.01,0.06,0.35,0,2398.59,5692.73,4074.41,12165.73,19.7,46.8,33.5,0.583,0.417,1.397,0.03,0.04,0.21,Inf
20161111_S1507060I_trim_TM,1419,511,736,232,645.2,672,98.2,61,103,11.4,95.6,211.1,97,26.9,4.6,110.3,2382.05,6830.74,3448.05,12660.84,18.8,54,27.2,0.665,0.335,1.981,0.02,0.06,0.16,1461.23,3776.12,1478.21,6715.56,21.8,56.2,22,0.719,0.281,2.555,0.04,0.06,0.15,0.005,0.007,0.012,0.024,18.9,30.5,50.5,0.377,0.623,0.604,0.02,0.06,0.23,67.6,121.3,0.253,0.862,0.86,0.917,1460.68,3776.1,1478.18,6714.96,21.8,56.2,22,0.719,0.281,2.555,0.04,0.06,0.15,Inf,7.79,10.42,15.52,33.73,23.1,30.9,46,0.402,0.598,0.672,0.02,0.1,0.27,0,3212.41,11992.34,6112.65,21317.4,15.1,56.3,28.7,0.662,0.338,1.962,0.02,0.06,0.15,Inf
20161111_S1507060I_trim_SC,1281,39,756,488,660,672,50.7,12.6,5,0.4,11,183.5,91.5,7.2,11.6,209.4,48.12,56.01,25.15,129.28,37.2,43.3,19.5,0.69,0.31,2.227,0.02,0.06,0.25,7.8,14.21,10.19,32.19,24.2,44.1,31.6,0.582,0.418,1.395,0.04,0.04,0.29,0.007,0.006,0.003,0.016,46.6,36.7,16.8,0.686,0.314,2.184,0.02,0.07,0.29,7.8,71.3,0.555,1.118,0.999,1.137,9.03,19.08,9.92,38.03,23.7,50.2,26.1,0.658,0.342,1.923,0,0.07,0.29,3,0.09,0.1,0.05,0.25,36.3,41.9,21.9,0.657,0.343,1.914,0.03,0.06,0.26,1,69.41,116.78,50.73,236.93,29.3,49.3,21.4,0.697,0.303,2.302,0.02,0.06,0.3,Inf
20161111_S1507060I_trim_AC,1133,107,776,312,718.6,724,40.3,28.2,16,1.6,45.4,199.8,84,8.6,3.7,101.5,1329.8,753.87,642.67,2726.35,48.8,27.7,23.6,0.54,0.46,1.173,0.03,0.09,0.24,177.09,177.77,142.71,497.58,35.6,35.7,28.7,0.555,0.445,1.246,0,0.04,0.24,0.013,0.011,0.04,0.064,19.7,18,62.3,0.224,0.776,0.289,0.02,0.07,0.24,32.2,47,1.055,0.788,0.713,0.781,377.99,253.83,189.15,820.98,46,30.9,23,0.573,0.427,1.342,0,0.04,0.26,1,0.51,0.61,1.42,2.54,19.9,24,56.1,0.3,0.7,0.428,0.02,0.04,0.29,0,1458.11,1295.51,1197.35,3950.96,36.9,32.8,30.3,0.52,0.48,1.082,0.02,0.09,0.24,Inf
20161114_S1644655F_trim_TM,1735,89,628,432,560.7,560,12.3,7.3,1,0.1,8,140.3,107.1,2.4,3.2,36.8,59.48,18.55,6.33,84.35,70.5,22,7.5,0.746,0.254,2.932,0,0.05,0.21,23.77,5.94,1.52,31.22,76.1,19,4.9,0.796,0.204,3.903,0,0.04,0.15,0.013,0.006,0.004,0.024,57.4,26,16.6,0.61,0.39,1.564,0.01,0.05,0.18,5.7,16.5,1.593,1.13,0.907,1.194,27.55,5.88,1.63,35.06,78.6,16.8,4.7,0.783,0.217,3.598,0,0.04,0.15,Inf,0.06,0.04,0.02,0.12,51.3,30.4,18.3,0.625,0.375,1.664,0.02,0.04,0.18,4,1137.13,888.95,27.05,2053.12,55.4,43.3,1.3,0.97,0.03,32.866,0.02,0.04,0.15,Inf
20161114_S1644655F_trim_AC,1744,466,744,216,611,624,65.2,57.2,133,10.4,82.2,163.6,100.3,20,2.3,66,1131.38,2258.09,2421.77,5811.24,19.5,38.9,41.7,0.483,0.517,0.932,0.02,0.09,0.22,432.45,851.62,823.5,2107.57,20.5,40.4,39.1,0.508,0.492,1.034,0.03,0.04,0.23,0.005,0.012,0.021,0.038,13.2,32.5,54.3,0.374,0.626,0.598,0.02,0.1,0.39,58.1,71.6,0.589,0.697,0.752,0.679,411.91,1007.31,862.56,2281.78,18.1,44.1,37.8,0.539,0.461,1.168,0.04,0.05,0.22,1.5,1.62,3.7,6.8,12.12,13.4,30.5,56.1,0.352,0.648,0.544,0.02,0.12,0.22,0,1696.02,4261.65,4554.99,10512.67,16.1,40.5,43.3,0.483,0.517,0.936,0.02,0.04,0.16,219
20161115_S0265940I_trim_TM,1342,377,808,212,721,732,75.3,31.2,70,7.3,74.9,213,85,17.2,3,111.8,1546.6,3113.33,891.76,5551.69,27.9,56.1,16.1,0.777,0.223,3.491,0.02,0.04,0.16,199.84,430.57,211.78,842.18,23.7,51.1,25.1,0.67,0.33,2.033,0.04,0.05,0.15,0.006,0.01,0.018,0.033,17.3,29.3,53.4,0.354,0.646,0.548,0.03,0.1,0.24,53,92.4,0.968,0.676,0.925,0.582,200.64,430.57,211.81,843.02,23.8,51.1,25.1,0.67,0.33,2.033,0.04,0.05,0.15,Inf,0.89,2.02,3.13,6.04,14.8,33.4,51.8,0.392,0.608,0.644,0.02,0.11,0.21,0,2423.34,6931.99,2852.99,12208.31,19.8,56.8,23.4,0.708,0.292,2.43,0.02,0.04,0.24,Inf
20161115_S0265940I_trim_AC,1079,134,928,348,813.4,824,66.1,34,46,4.9,62.6,226.4,74.7,11.2,2.4,90.6,1248.85,1151.26,743.58,3143.7,39.7,36.6,23.7,0.608,0.392,1.548,0.01,0.08,0.17,114.03,94.55,79.83,288.41,39.5,32.8,27.7,0.542,0.458,1.184,0,0.04,0.16,0.009,0.006,0.015,0.03,28.8,21.5,49.8,0.301,0.699,0.431,0.03,0.06,0.2,44.3,82.3,0.958,0.87,0.707,0.867,479.02,354.99,358.06,1192.07,40.2,29.8,30,0.498,0.502,0.991,0,0.04,0.17,1,3.61,2.12,6.14,11.87,30.4,17.8,51.7,0.257,0.743,0.345,0.01,0.06,0.2,0,1662.3,3814.98,2467.07,7944.36,20.9,48,31.1,0.607,0.393,1.546,0.03,0.06,0.15,Inf
20161128_S1722703C_trim_TM,1448,29,832,512,624.7,580,100.4,18.4,0,0,10.3,193.9,98.4,15,5.1,40,190.86,64.1,19.86,274.82,69.4,23.3,7.2,0.763,0.237,3.227,0.02,0.06,0.16,62.77,33.58,7.68,104.03,60.3,32.3,7.4,0.814,0.186,4.37,0,0.04,0.15,0.01,0.003,0.001,0.014,68.3,24.6,7.1,0.777,0.223,3.489,0.02,0.06,0.19,7.3,141.9,0.476,1.355,1.189,1.412,62.78,33.58,7.68,104.04,60.3,32.3,7.4,0.814,0.186,4.37,0,0.04,0.15,Inf,0.64,0.24,0.07,0.95,67.5,24.9,7.6,0.767,0.233,3.287,0.02,0.05,0.15,3,237.39,128.69,40.05,406.13,58.5,31.7,9.9,0.763,0.237,3.214,0.02,0.04,0.32,Inf
20161128_S1722703C_trim_SC,1549,19,692,508,582.3,584,37.3,10.4,2,0.1,7,155.2,103.5,6.7,5,40.3,38.61,18.17,9.11,65.89,58.6,27.6,13.8,0.666,0.334,1.994,0.02,0.09,0.17,15.31,8.29,3.1,26.7,57.3,31,11.6,0.728,0.272,2.671,0,0.04,0.39,0.01,0.005,0.003,0.018,57.1,27.6,15.4,0.642,0.358,1.791,0.04,0.05,0.38,5,52.6,1.442,1.291,0.946,1.344,16.22,8.82,3.61,28.65,56.6,30.8,12.6,0.71,0.29,2.446,0,0.04,0.15,Inf,0.13,0.07,0.03,0.23,57.1,29,13.8,0.677,0.323,2.096,0.02,0.05,0.27,Inf,61.43,39.11,17.32,117.85,52.1,33.2,14.7,0.693,0.307,2.259,0.02,0.09,0.26,Inf
20161128_S1722703C_trim_AC,1578,88,932,532,656.1,660,50.7,17.2,11,0.7,11.3,166.6,92,7,7.7,225,175.57,183.75,28.95,388.27,45.2,47.3,7.5,0.864,0.136,6.346,0.01,0.09,0.16,68.85,48.88,15.03,132.76,51.9,36.8,11.3,0.765,0.235,3.252,0,0.04,0.29,0.011,0.009,0.002,0.023,48.8,41.4,9.8,0.809,0.191,4.229,0.04,0.04,0.2,8,71.3,0.655,1.231,1.527,1.13,62.07,57.65,11.16,130.88,47.4,44.1,8.5,0.838,0.162,5.167,0,0.05,0.39,Inf,0.43,0.34,0.09,0.85,50.5,39.6,10,0.799,0.201,3.964,0.01,0.04,0.15,Inf,245.09,381.45,57.37,683.91,35.8,55.8,8.4,0.869,0.131,6.649,0.02,0.04,0.28,Inf
20161202_S0137033B_trim_SC,1533,1,612,560,587,588,9.2,7.1,0,0,6,5.6,102.2,1.6,5.4,6.5,16.69,7.5,3.18,27.37,61,27.4,11.6,0.702,0.298,2.358,0.02,0.05,0.38,8.33,3.52,1.2,13.04,63.8,27,9.2,0.746,0.254,2.942,0,0.04,0.4,0.01,0.003,0.002,0.015,66.5,22.2,11.3,0.662,0.338,1.955,0.02,0.07,0.38,4.2,12.2,1.428,1.232,0.814,1.323,6.33,3.18,1.3,10.81,58.6,29.4,12,0.71,0.29,2.451,0,0.04,0.4,Inf,0.06,0.03,0.01,0.1,61,26.4,12.6,0.677,0.323,2.1,0.02,0.05,0.4,Inf,28.06,16.33,6.78,51.17,54.8,31.9,13.3,0.707,0.293,2.409,0.02,0.04,0.4,Inf
20161202_S0137033B_trim_IR,1755,53,624,508,533.1,528,20.6,8.3,0,0,8.3,134.4,112.7,4.1,6.6,36.3,5.45,2.49,2.24,10.18,53.5,24.5,22,0.526,0.474,1.11,0.02,0.04,0.38,2.86,1.06,0.9,4.83,59.3,22,18.7,0.54,0.46,1.173,0,0.04,0.4,0.008,0.002,0.003,0.012,62.2,17.1,20.8,0.451,0.549,0.82,0.02,0.06,0.39,5.8,28.6,1.78,1.085,0.416,1.426,2,0.96,0.96,3.91,51.1,24.4,24.5,0.5,0.5,0.999,0,0.04,0.4,1.5,0.02,0.01,0.01,0.03,58.7,22.9,18.4,0.555,0.445,1.246,0.02,0.04,0.38,4,11.79,8.27,6.96,27.02,43.6,30.6,25.8,0.543,0.457,1.189,0.02,0.06,0.4,Inf
20161202_S1327247F_trim_TM,1331,142,764,320,578.5,572,32,19.1,37,3.1,26.4,168.3,104.1,6.5,3.5,97.1,376.15,630.1,133.21,1139.46,33,55.3,11.7,0.825,0.175,4.73,0.02,0.07,0.24,73.68,130.06,30.6,234.34,31.4,55.5,13.1,0.81,0.19,4.251,0.04,0.04,0.15,0.009,0.011,0.014,0.035,25.9,32.8,41.3,0.443,0.557,0.794,0.02,0.04,0.17,18.6,41.2,1.873,0.769,0.715,0.801,145.87,290.08,57.18,493.13,29.6,58.8,11.6,0.835,0.165,5.073,0,0.06,0.15,Inf,0.19,0.28,0.35,0.82,22.8,34,43.2,0.441,0.559,0.788,0.02,0.1,0.19,0.5,454.33,1284.11,476.23,2214.67,20.5,58,21.5,0.729,0.271,2.696,0.02,0.04,0.25,198.9333
20161202_S1327247F_trim_SC,728,9,620,504,552.4,548,19.9,11.7,0,0,10.5,210.2,108.8,3.9,11.8,87,65.17,35.3,12.73,113.2,57.6,31.2,11.2,0.735,0.265,2.773,0.02,0.08,0.16,25.8,15.54,5.4,46.74,55.2,33.3,11.6,0.742,0.258,2.876,0,0.04,0.15,0.005,0.004,0.001,0.01,54.1,34.9,11,0.761,0.239,3.182,0.02,0.08,0.16,7.5,27.1,2.041,1.058,0.873,1.052,25.76,15.54,5.4,46.71,55.2,33.3,11.6,0.742,0.258,2.876,0,0.04,0.15,Inf,0.18,0.13,0.05,0.35,49.4,36,14.6,0.712,0.288,2.468,0.02,0.08,0.16,Inf,99.37,83.55,30.03,212.95,46.7,39.2,14.1,0.736,0.264,2.782,0.02,0.05,0.23,Inf
20161202_S1327247F_trim_AC,1710,778,728,188,511.4,524,84.2,67.6,195,20.9,91.1,183.7,122.6,33.3,4.8,135,2537.56,5665.54,2975.54,11178.65,22.7,50.7,26.6,0.656,0.344,1.904,0.02,0.08,0.19,1169.94,3047.6,1409.29,5626.84,20.8,54.2,25,0.684,0.316,2.163,0.04,0.07,0.15,0.008,0.025,0.047,0.08,10,31.2,58.8,0.347,0.653,0.531,0.04,0.06,0.19,64.5,100.1,0.532,0.689,0.797,0.675,1036.36,2597.65,1323.55,4957.56,20.9,52.4,26.7,0.662,0.338,1.963,0.04,0.07,0.15,3,2.75,7.74,14.36,24.85,11.1,31.2,57.8,0.35,0.65,0.54,0.02,0.08,0.21,0,3584.65,10560.79,6039.01,20184.45,17.8,52.3,29.9,0.636,0.364,1.749,0.02,0.08,0.15,65.3191
20161205_S0196347C_trim_TM,1099,32,856,732,799.7,800,19.8,12.6,0,0,13.4,207,75.1,1.9,11.1,85.3,88.98,28.28,19.02,136.28,65.3,20.8,14,0.598,0.402,1.487,0.01,0.05,0.38,22.16,12.52,7.19,41.86,52.9,29.9,17.2,0.635,0.365,1.742,0,0.04,0.4,0.011,0.004,0.003,0.017,62.1,22.1,15.8,0.584,0.416,1.403,0.01,0.05,0.36,9.5,26.4,1.981,1.266,0.795,1.413,30.18,12.01,7.59,49.79,60.6,24.1,15.3,0.613,0.387,1.582,0,0.04,0.4,Inf,0.29,0.1,0.07,0.46,62.3,22.2,15.5,0.588,0.412,1.429,0.01,0.05,0.38,Inf,93.3,55.33,45.08,193.71,48.2,28.6,23.3,0.551,0.449,1.227,0.02,0.04,0.4,Inf
20161205_S0196347C_trim_SC,1050,48,980,740,812.1,812,19.4,14.6,4,0.4,18.7,217.4,73.9,1.7,5.8,90,103.25,111.32,69.02,283.59,36.4,39.3,24.3,0.617,0.383,1.613,0.02,0.06,0.16,30.32,15.5,12.6,58.41,51.9,26.5,21.6,0.552,0.448,1.23,0,0.04,0.4,0.006,0.003,0.003,0.013,47.6,26.4,26,0.503,0.497,1.013,0.02,0.06,0.38,13.2,24,2.47,1.034,0.774,1.148,30.31,15.5,12.6,58.4,51.9,26.5,21.6,0.552,0.448,1.23,0,0.04,0.4,Inf,0.27,0.11,0.16,0.54,49.6,21.3,29.1,0.423,0.577,0.732,0.02,0.06,0.38,0.33333,159.07,206.39,139.54,505,31.5,40.9,27.6,0.597,0.403,1.479,0.02,0.06,0.15,Inf
20161205_S0196347C_trim_AC,1062,136,956,364,824.9,824,55.2,32.6,16,1.7,48.5,230.8,73.2,8.1,4.4,166.5,3920.2,2708.54,511.94,7140.68,54.9,37.9,7.2,0.841,0.159,5.291,0.02,0.1,0.17,2223.48,2224.48,391.7,4839.66,45.9,46,8.1,0.85,0.15,5.679,0,0.04,0.15,0.012,0.01,0.019,0.041,28.8,24.6,46.6,0.346,0.654,0.528,0.02,0.13,0.22,34.3,70.1,1.247,0.863,0.921,0.828,1695.07,1460.37,266.81,3422.26,49.5,42.7,7.8,0.846,0.154,5.473,0,0.04,0.15,Inf,3.23,3.26,6.13,12.62,25.6,25.8,48.6,0.347,0.653,0.532,0.02,0.13,0.22,0.33333,3680.47,5242.97,1035.68,9959.12,37,52.6,10.4,0.835,0.165,5.062,0.02,0.09,0.15,Inf
20161206_S0213038F_trim_TM,1342,76,660,508,602.2,600,17.5,14.6,52,4.1,23.5,166.8,99.7,3,7,66.5,21.04,52.79,82.53,156.36,13.5,33.8,52.8,0.39,0.61,0.64,0.01,0.08,0.27,6.14,17.08,31.73,54.95,11.2,31.1,57.7,0.35,0.65,0.538,0,0.13,0.4,0.004,0.006,0.014,0.023,16.6,24,59.3,0.288,0.712,0.405,0.03,0.05,0.34,16.6,18.4,2.26,0.64,0.438,0.763,7.82,20.11,33.32,61.25,12.8,32.8,54.4,0.376,0.624,0.603,0,0.1,0.4,0,0.04,0.08,0.14,0.26,17.2,28.8,54,0.348,0.652,0.535,0.01,0.06,0.34,0,28.31,101.78,168.8,298.89,9.5,34.1,56.5,0.376,0.624,0.603,0.03,0.07,0.25,94.1765
20161206_S0213038F_trim_SC,1176,47,732,536,663.7,668,22.3,18,68,6,28.9,184.7,90.5,3.2,5.9,73.5,27.78,83.87,172.44,284.09,9.8,29.5,60.7,0.327,0.673,0.486,0.02,0.11,0.22,10.47,38.77,69.28,118.52,8.8,32.7,58.5,0.359,0.641,0.56,0.04,0.1,0.4,0.004,0.007,0.018,0.029,13.3,24.5,62.2,0.282,0.718,0.393,0.01,0.05,0.37,20.4,24,2.263,0.649,0.424,0.792,10.47,38.77,69.28,118.52,8.8,32.7,58.5,0.359,0.641,0.56,0.04,0.1,0.4,0,0.08,0.13,0.29,0.49,15.7,26.1,58.2,0.309,0.691,0.448,0.02,0.07,0.35,0,49.39,204.62,359.23,613.24,8.1,33.4,58.6,0.363,0.637,0.57,0.02,0.05,0.18,134.6087
20161206_S0213038F_trim_AC,1370,85,816,536,678.2,680,28.5,19,94,7.3,26.9,176,88.6,3.9,4.2,52.5,65.83,134.03,203.01,402.87,16.3,33.3,50.4,0.398,0.602,0.66,0.02,0.07,0.18,21.59,53.83,79.58,154.99,13.9,34.7,51.3,0.403,0.597,0.676,0.04,0.04,0.25,0.008,0.01,0.017,0.036,22.9,28.6,48.4,0.371,0.629,0.59,0.02,0.06,0.15,19,35.6,1.892,0.809,0.674,0.888,23.29,53.63,79.78,156.7,14.9,34.2,50.9,0.402,0.598,0.672,0,0.04,0.15,0,0.16,0.2,0.39,0.75,21.1,27.1,51.9,0.343,0.657,0.522,0.02,0.14,0.15,0,114.55,298.23,405.4,818.17,14,36.5,49.5,0.424,0.576,0.736,0.04,0.07,0.15,Inf
20161212_S0575181J_trim_SC,1256,118,648,408,566,572,30.1,23.5,171,15,34.4,170.3,106.4,6.4,4.9,60,91.87,214.11,432.72,738.7,12.4,29,58.6,0.331,0.669,0.495,0.02,0.05,0.23,59.68,79.44,222.33,361.45,16.5,22,61.5,0.263,0.737,0.357,0,0.04,0.21,0.004,0.007,0.021,0.032,11.8,22.2,66,0.251,0.749,0.336,0.02,0.05,0.23,24.3,34.9,1.821,0.636,0.658,0.691,47.6,70.05,195.2,312.85,15.2,22.4,62.4,0.264,0.736,0.359,0,0.04,0.22,0,0.13,0.24,0.76,1.13,11.6,21.1,67.4,0.238,0.762,0.313,0.02,0.05,0.23,0,183.93,530.71,831.17,1545.81,11.9,34.3,53.8,0.39,0.61,0.639,0.02,0.05,0.22,109.7308
20161212_S0575181J_trim_AC,1031,209,680,432,600.4,604,41.1,32.2,234,28.5,50.7,201.6,100.4,7.5,6,62,146.06,369.61,715.47,1231.15,11.9,30,58.1,0.341,0.659,0.517,0.02,0.1,0.17,67.35,155.66,305.16,528.17,12.8,29.5,57.8,0.338,0.662,0.51,0,0.04,0.19,0.003,0.006,0.014,0.023,12.7,26.1,61.3,0.299,0.701,0.426,0.02,0.05,0.37,35.8,45.7,0.886,0.701,0.568,0.781,67.36,155.66,305.16,528.18,12.8,29.5,57.8,0.338,0.662,0.51,0,0.04,0.19,0,0.26,0.57,1.22,2.05,12.5,27.9,59.6,0.318,0.682,0.467,0.02,0.05,0.37,0,197.15,692.8,1368.02,2257.98,8.7,30.7,60.6,0.336,0.664,0.506,0.02,0.05,0.17,16.2397
20161212_S1207538C_trim_TM,1393,34,788,352,626.7,624,19.4,9.3,5,0.4,17.1,162.2,95.8,3.3,2.4,68.1,125.74,464.83,28.09,618.67,20.3,75.1,4.5,0.943,0.057,16.545,0.03,0.1,0.2,50.99,197.21,15.56,263.76,19.3,74.8,5.9,0.927,0.073,12.673,0.04,0.09,0.15,0.007,0.007,0.007,0.021,32.7,34,33.3,0.505,0.495,1.021,0.01,0.11,0.19,12.1,24.6,1.803,0.9,0.509,1.008,56.73,220.22,15.98,292.92,19.4,75.2,5.5,0.932,0.068,13.783,0.04,0.09,0.37,Inf,0.13,0.12,0.14,0.39,33.6,31,35.4,0.467,0.533,0.875,0.02,0.11,0.35,1,190.38,676,73.88,940.26,20.2,71.9,7.9,0.901,0.099,9.15,0.02,0.1,0.15,Inf
20161212_S1207538C_trim_SC,1290,11,728,616,653.2,652,17.3,10.5,1,0.1,9,13.9,91.9,2.4,11.3,80.5,32.92,30.74,11.32,74.98,43.9,41,15.1,0.731,0.269,2.716,0.02,0.05,0.39,11.02,12.07,5.18,28.26,39,42.7,18.3,0.7,0.3,2.332,0.04,0.04,0.34,0.01,0.011,0.004,0.025,40,45,14.9,0.751,0.249,3.016,0.02,0.04,0.29,6.4,23.6,1.833,1.107,0.978,1.049,11.02,12.07,5.18,28.26,39,42.7,18.3,0.7,0.3,2.332,0.04,0.04,0.34,Inf,0.13,0.09,0.04,0.25,49.3,36.7,14.1,0.722,0.278,2.601,0.01,0.04,0.39,Inf,53.31,67.94,21.61,142.86,37.3,47.6,15.1,0.759,0.241,3.144,0.02,0.04,0.4,Inf
20161212_S1207538C_trim_AC,1188,33,756,556,661.2,660,22.9,12,10,0.9,12.5,184.3,90.8,3.1,6.6,118.8,58.56,34.7,19.97,113.23,51.7,30.6,17.6,0.635,0.365,1.737,0.02,0.06,0.35,20.4,15.02,4.62,40.04,50.9,37.5,11.5,0.765,0.235,3.248,0,0.04,0.27,0.01,0.006,0.004,0.02,51.8,28.6,19.7,0.593,0.407,1.454,0.02,0.05,0.27,8.8,31.2,2.005,1.186,0.921,1.221,19.44,16.62,8.09,44.14,44,37.6,18.3,0.673,0.327,2.055,0,0.04,0.34,Inf,0.19,0.12,0.05,0.36,53.2,32.6,14.3,0.695,0.305,2.282,0.02,0.04,0.16,Inf,103.16,84.35,58.91,246.42,41.9,34.2,23.9,0.589,0.411,1.432,0.02,0.04,0.31,128.8333
